Array rotation angle is configured as 12.770 deg.

Atmospheric profile 61 with 49 levels read from file atmprof61.dat

Initialize atmosphere ranging from 1.000 to 120.000 km a.s.l.

Results of the atmosphere fit:
  Layer 1:   1.00 km < h <   6.00 km: a =     -167.844, b =      1203.97, c =       994186
  Layer 2:   6.00 km < h <  10.75 km: a =     -91.7951, b =      1153.31, c =       878154
  Layer 3:  10.75 km < h <  24.00 km: a =     -2.09646, b =      1351.33, c =       636143
  Layer 4:  24.00 km < h < 113.00 km: a =  2.70096e-05, b =      988.099, c =       679975
  Layer 5: 113.00 km < h < 120.00 km: a =   0.00149024, b =            1, c =  8.05241e+09
  Sum of residuals squared: 0.279354 (compared to 0.969701 with starting layers)


Altitude [km]    rho(table)     rho(fit)       thick(table)  thick(fit)
       1.0      1.09154e-03   1.09512e-03      9.20914e+02   9.20914e+02
       2.0      9.92469e-04   9.90331e-04      8.17080e+02   8.16729e+02
       3.0      8.98303e-04   8.95565e-04      7.22595e+02   7.22514e+02
       4.0      8.09558e-04   8.09867e-04      6.36932e+02   6.37314e+02
       5.0      7.29596e-04   7.32369e-04      5.59894e+02   5.60267e+02
       6.0      6.57009e-04   6.63196e-04      4.90593e+02   4.90593e+02
       7.0      5.90362e-04   5.91816e-04      4.28142e+02   4.27910e+02
       8.0      5.28877e-04   5.28118e-04      3.71998e+02   3.71974e+02
       9.0      4.72393e-04   4.71276e-04      3.21962e+02   3.22058e+02
      10.0      4.19627e-04   4.20553e-04      2.77342e+02   2.77515e+02
      11.0      3.69359e-04   3.76910e-04      2.37899e+02   2.37672e+02
      12.0      3.20341e-04   3.22083e-04      2.03434e+02   2.02794e+02
      13.0      2.74848e-04   2.75231e-04      1.73640e+02   1.72990e+02
      14.0      2.36371e-04   2.35195e-04      1.48097e+02   1.47521e+02
      15.0      2.03704e-04   2.00982e-04      1.26029e+02   1.25757e+02
      16.0      1.75429e-04   1.71747e-04      1.07116e+02   1.07159e+02
      17.0      1.50010e-04   1.46764e-04      9.08611e+01   9.12661e+01
      18.0      1.27385e-04   1.25415e-04      7.69999e+01   7.76852e+01
      19.0      1.07643e-04   1.07171e-04      6.52622e+01   6.60798e+01
      20.0      9.07536e-05   9.15816e-05      5.53527e+01   5.61626e+01
      21.0      7.65254e-05   7.82597e-05      4.69978e+01   4.76879e+01
      22.0      6.45711e-05   6.68757e-05      3.99554e+01   4.04461e+01
      23.0      5.45314e-05   5.71477e-05      3.40038e+01   3.42576e+01
      24.0      4.61537e-05   4.26036e-05      2.89694e+01   2.89694e+01
      25.0      3.91021e-05   3.67771e-05      2.47144e+01   2.50075e+01
      27.5      2.66087e-05   2.54627e-05      1.68119e+01   1.73140e+01
      30.0      1.77871e-05   1.76291e-05      1.13373e+01   1.19874e+01
      32.5      1.19495e-05   1.22056e-05      7.72163e+00   8.29950e+00
      35.0      7.91825e-06   8.45055e-06      5.29078e+00   5.74619e+00
      37.5      5.32540e-06   5.85076e-06      3.67696e+00   3.97839e+00
      40.0      3.62410e-06   4.05078e-06      2.58410e+00   2.75446e+00
      42.5      2.50028e-06   2.80457e-06      1.83849e+00   1.90706e+00
      45.0      1.73848e-06   1.94175e-06      1.31758e+00   1.32037e+00
      47.5      1.23526e-06   1.34437e-06      9.60094e-01   9.14166e-01
      50.0      8.95512e-07   9.30779e-07      6.97604e-01   6.32933e-01
      55.0      4.83923e-07   4.46170e-07      3.69740e-01   3.03411e-01
      60.0      2.61141e-07   2.13872e-07      1.92021e-01   1.45455e-01
      65.0      1.37382e-07   1.02520e-07      9.70312e-02   6.97380e-02
      70.0      7.09729e-08   4.91431e-08      4.80049e-02   3.34430e-02
      75.0      3.50900e-08   2.35568e-08      2.26747e-02   1.60450e-02
      80.0      1.70787e-08   1.12920e-08      1.05202e-02   7.70527e-03
      85.0      7.95082e-09   5.41282e-09      4.65750e-03   3.70759e-03
      90.0      3.45752e-09   2.59464e-09      2.02234e-03   1.79130e-03
      95.0      1.46674e-09   1.24375e-09      8.95752e-04   8.72725e-04
     100.0      6.48615e-10   5.96191e-10      4.15702e-04   4.32405e-04
     105.0      2.93860e-10   2.85785e-10      2.04276e-04   2.21336e-04
     110.0      1.42302e-10   1.36991e-10      1.08266e-04   1.20160e-04
     115.0      7.13388e-11   1.24186e-10      6.12829e-05   6.20932e-05
     120.0      3.76618e-11   1.24186e-10      3.67697e-05   0.00000e+00

 Std. dev. in density ratio: 4.376 percent, in thickness ratio: 2.488 percent,
 including only layers at thickness above 1 g/cm^2 (altitude below 47.177 km).


 AAAAAAAAAAAAAAAAAAAAAAAAAAAAAAAAAAAAAAAAAAAAAAAAAAAAAAAAAAAAAAAAAAAAAAAAAAAAAAAA

   OOO      OOO     OOOO       OOOO    OO   O      O      O  
  O   O    O   O    O    O    O    O   OO   O    O       O O 
 O        O     O   O     O   O        OO   O  O        O   O
 O        O     O   O    O     OOOO    OO   OO         O     O
 O        O     O   OOOO           O   OO   O  O       OOOOOOO
  O   O    O   O    O   O     O    O   OO   O    O     O     O
   OOO      OOO     O     O    OOOO    OO   O      O   O     O

 COSMIC RAY SIMULATION FOR KASCADE

 A PROGRAM TO SIMULATE EXTENSIVE AIR SHOWERS IN ATMOSPHERE

 BASED ON A PROGRAM OF P.K.F. GRIEDER, UNIVERSITY BERN, SWITZERLAND
 QGSJET-II MODEL ACCORDING TO S.S. OSTAPCHENKO, IEKP, KARLSRUHE AND MSU, MOSCOW, RUSSIA
 HDPM MODEL ACCORDING TO J.N. CAPDEVIELLE, COLLEGE DE FRANCE, PARIS, FRANCE
 URQMD-MODEL FROM THE URQMD-COLLABORATION, FRANKFURT(MAIN), GERMANY
 EGS4 ACCORDING TO W.R. NELSON, H. HIRAYAMA, D.W.O. ROGERS, SLAC, STANFORD, USA
 NKG FORMULAS FOR FAST SIMULATION OF EL.MAG. PARTICLES

 REFERENCES: D. HECK, J.KNAPP, J.N. CAPDEVIELLE, G. SCHATZ, T. THOUW,
             REPORT FZKA 6019 (1998)
             D. HECK, REPORT FZKA 7254 (2006)
             SEE ALSO WEB PAGE https://www.iap.kit.edu/corsika/
             KARLSRUHE INSTITUTE OF TECHNOLOGY (KIT)
             INSTITUT FUER KERNPHYSIK
             POSTFACH 3640
             D-76021 KARLSRUHE
             GERMANY

 IN CASE OF PROBLEMS CONTACT:   Dr. Tanguy Pierog
                      e-mail:   tanguy.pierog@kit.edu
                         FAX:   (49) 721-608-24075 
                       PHONE:   (49) 721-608-28134 
   OR                       :   Dr. Dieter Heck 
                      e-mail:   dieter.heck@partner.kit.edu
                         FAX:   (49) 721-608-24075 
                       PHONE:   (49) 721-608-23777 
   AND SEND YOUR LIST-FILE BY E-MAIL

 NUMBER OF VERSION :  7.7410
 DATE   OF VERSION : April     30, 2021

 VERSION GENERATED FOR UNIX OR COMPATIBLE SYSTEMS
 ^^^^^^^^^^^^^^^^^^^^^^^^^^^^^^^^^^^^^^^^^^^^^^^^
  (RECL IS DEFINED IN BYTES)
  WITH TIMERC DATE ROUTINE
 ZENITH ANGLE DEPENDENCE FOR VOLUME DETECTOR
  
 INTERFACE FOR EXTERNAL ATMOSPHERIC PROFILES ENABLED
 ===================================================

 CHERENKOV RADIATION IS GENERATED
 ================================

 INTERFACE FOR SYSTEMS OF TELESCOPES OR OTHER CHERENKOV DETECTORS ENABLED

 SLANT DEPTH FOR LONGITUDINAL DISTRIBUTIONS
 ==========================================

  
 ========== USERS RUN DIRECTIVES FOR THIS SIMULATION ===========================

 DATA CARDS FOR RUN STEERING ARE EXPECTED FROM STANDARD INPUT
   
RUNNR 1
EVTNR 1
NSHOW 10
PRMPAR 1
ERANGE 3E4 1E5
ESLOPE 0
THETAP 0. 30.
PHIP 0. 360.
SEED 805 0 0
SEED 3234 0 0
SEED 305 0 0
SEED 2220 0 0
ATMOD 1
MAGNET 25.2 40.88
ARRANG 12.77
ELMFLG F T
RADNKG 200.E2
FIXCHI 0.
HADFLG 0 0 0 0 0 2
QGSJET T 0
QGSSIG T
HILOW 100.
ECUTS 0.30 0.05 0.02 0.02
MUADDI F
MUMULT T
LONGI T 20. F F
MAXPRT 50
PAROUT F F
ECTMAP 1.E6
DEBUG F 6 F 1000000
DIRECT ./
USER user
HOST host
ATMOSPHERE 61 T
TELFIL ./example.telescope
OBSLEV 1239.E2
CSCAT 1 100.E2 100.E2
CERFIL 0
CERSIZ 5.
CWAVLG 200. 700.
TELESCOPE 53.59E2 73.52E2 1E2 0.25E2
TELESCOPE 53.59E2 -80.48E2 1E2 0.25E2
TELESCOPE -107.18E2 6.95E2 1E2 0.25E2
EXIT

 END OF DATACARD INPUT

 ATMOSPHERIC REFRACTION IS TAKEN INTO ACCOUNT
 ============================================



 FITTED ATMOSPHERIC PARAMETERS:
 HLAY =   100000.00000000000        600000.00000000000        1075000.0000000000        2400000.0000000000        11300000.000000000     
 AATM =  -167.84435449903253       -91.795073341765601       -2.0964565042836512        2.7009641019759556E-005   1.4902379547885789E-003
 BATM =   1203.9678985708724        1153.3071046003301        1351.3316059838257        988.09890827890354        1.0000000000000000     
 CATM =   994186.38000000000        878153.55000000005        636143.04000000004        679974.59609859425        8052405296.3759394     

 ========== START OF RUN =======================================================

 PRESENT TIME : 12.11.2024  15:18:41 UTC
 RANDOM NUMBER GENERATOR AT BEGIN OF RUN :
 SEQUENCE =  1  SEED =       805  CALLS =         0  BILLIONS =         0
 SEQUENCE =  2  SEED =      3234  CALLS =         0  BILLIONS =         0
 SEQUENCE =  3  SEED =       305  CALLS =         0  BILLIONS =         0
 SEQUENCE =  4  SEED =      2220  CALLS =         0  BILLIONS =         0

 CHERENKOV OUTPUT TO FILE: ./DAT000001                                                                                                                                                                                                                                                    


 ========== INTERACTION MODELS =================================================
 QGSJET TREATS HIGH ENERGY HADRONIC INTERACTIONS

 QGSJET CROSS-SECTIONS ARE TAKEN
 ====================================================
 |                                                  |
 |         QUARK GLUON STRING JET -II MODEL         |
 |                                                  |
 |         HADRONIC INTERACTION MONTE CARLO         |
 |                        BY                        |
 |                 S. OSTAPCHENKO                   |
 |                                                  |
 |             e-mail: sergei@tf.phys.ntnu.no       |
 |                                                  |
 |                   Version II-04                  |
 |                                                  |
 | Publication to be cited when using this program: |
 | S.Ostapchenko, PRD 83 (2011) 014018              |
 |                                                  |
 | last modification:  09.04.2013                   |
 |                                                  |
 | Any modification has to be approved by the author|
 ====================================================

  qgaini: cross sections readout from the file: qgsdat-II-04
 done
  qgaini: nuclear cross sections readout from the file sectnu-II-04
 NUCLEUS PROJECTILES FRAGMENT REALISTICALLY IN THE FIRST INTERACTION
 FRAGMENTATION WITH EVAPORATION (PT AFTER JACEE)

 URQMD TREATS LOW ENERGY HADRONIC INTERACTIONS
 ############################################################
 ##                                                        ##
 ##     UrQMD 1.3.1  University of Frankfurt               ##
 ##                  urqmd@th.physik.uni-frankfurt.de      ##
 ##                                                        ##
 ############################################################
 ##                                                        ##
 ##     please cite when using this model:                 ##
 ##     S.A.Bass et al. Prog.Part.Nucl.Phys. 41 (1998) 225 ##
 ##     M.Bleicher et al. J.Phys. G25  (1999) 1859         ##
 ##                                                        ##
 ############################################################
 HIGH ENERGY INTERACTION MODEL USED ABOVE   100.000 GEV LAB ENERGY   OR
                                             13.763 GEV CM  ENERGY
 MUON/TAU MULTIPLE SCATTERING AFTER MOLIERE


 START EGS4  AIR SHOWER SUBROUTINE VERSION

 ELECTROMAGNETIC COMPONENT SIMULATED WITH EGS4

 DATASET EGSDAT6_3. AVAILABLE
 DATA FOR MEDIUM #  1, WHICH IS: MEDIUM=AIR-NTP                 ,STERNCID=AIR-NTP                       
 MIXT,RHO= 6.1250E-09,NE= 4,COMPOSITION IS :
 ASYM=N ,Z= 7.,A=   14.007,PZ= 5.39228E-02,RHOZ= 7.55280E-01            
 ASYM=O ,Z= 8.,A=   15.999,PZ= 1.44793E-02,RHOZ= 2.31660E-01            
 ASYM=AR,Z=18.,A=   39.948,PZ= 3.20917E-04,RHOZ= 1.28200E-02            
 ASYM=C ,Z= 6.,A=   12.011,PZ= 3.33024E-06,RHOZ= 4.00000E-05            
 EGS SUCCESSFULLY 'HATCHED' FOR ONE MEDIUM.
 ELECTRONS CAN BE CREATED AND ANY ELECTRON FOLLOWED DOWN TO
                                             0.00300 GEV KINETIC ENERGY
 GAMMAS CAN BE CREATED AND ANY GAMMA FOLLOWED DOWN TO
                                             0.00300 GEV ENERGY
 ELECTRON HISTORIES ARE TERMINATED AT        0.02051 GEV
 GAMMA HISTORIES ARE TERMINATED AT           0.02000 GEV



 ========== CONSTANTS AND PARAMETERS ===========================================

 PHYSICAL CONSTANTS C(1) TO C(50)
 6.37131500E+08  6.00000000E+05  2.00000000E+06  0.00000000E+00  0.00000000E+00
 4.58059654E-02  5.73089633E-01  5.28304217E-02  2.50000000E+00  2.07000000E+00
 8.20000000E+00  1.00000000E-01  0.00000000E+00  0.00000000E+00  1.00002339E+00
 9.67266333E-03  1.00000008E+00  5.75170728E-04  0.00000000E+00  0.00000000E+00
 3.77000000E+01  1.53287300E-04  9.38641700E+00  2.00000000E-03  2.99792458E+10
 1.00000000E+00  5.40302306E-01  1.57000000E+00  7.96326711E-04  2.10000000E-02
 0.00000000E+00  0.00000000E+00  0.00000000E+00  2.00000000E+01  0.00000000E+00
 0.00000000E+00  0.00000000E+00  0.00000000E+00  0.00000000E+00  0.00000000E+00
 0.00000000E+00  0.00000000E+00  0.00000000E+00  0.00000000E+00  2.61909598E-01
 8.99834275E-01  0.00000000E+00  1.03899198E+00  2.71383371E-01  1.37035999E+02


 CONSTANTS FOR KAONS CKA(1) TO CKA(80)
 0.00000000E+00  1.00000000E-01  0.00000000E+00  0.00000000E+00  0.00000000E+00
 0.00000000E+00  2.50000000E-01  5.00000000E-01  7.50000000E-01  1.00000000E+00
 5.00000000E-01  2.00000000E-01  9.26406662E-01  1.12407142E+00  1.49600000E+02
 1.49600000E+02  2.35531824E-01  2.06000000E-01  1.35000000E-01  2.22000000E-01
 5.00000000E-01  0.00000000E+00  6.35600000E-01  6.92762000E-01  8.74200000E-01
 6.78300000E-01  4.06900000E-01  2.44320607E+00  9.12400642E-01  0.00000000E+00
 0.00000000E+00  0.00000000E+00  0.00000000E+00  0.00000000E+00  1.00000000E+00
 1.00000000E+05  0.00000000E+00  0.00000000E+00  0.00000000E+00  0.00000000E+00
 0.00000000E+00  0.00000000E+00  0.00000000E+00  0.00000000E+00  0.00000000E+00
 0.00000000E+00  8.42300000E-01  8.98200000E-01  9.48900000E-01  9.82400000E-01
-2.15400000E-01  1.20000000E-02 -1.01000000E-02  1.27000000E+00  6.38000000E-01
 5.70000000E-02  0.00000000E+00  1.84000000E+00  0.00000000E+00  1.00000000E+00
 6.78000000E-01  7.60000000E-02  9.90000000E-03  2.22000000E+00  2.98000000E-02
 0.00000000E+00  1.28800000E-02  2.96000000E-02  1.96000000E-02  1.19400000E-02
 2.82000000E-02  0.00000000E+00  1.31000000E-02  2.82000000E-02  1.38000000E-02
 1.24100000E-02  0.00000000E+00  0.00000000E+00  0.00000000E+00  0.00000000E+00


 CONSTANTS FOR ETAS CETA(1) TO CETA(5)
 3.97200000E-01  7.26500000E-01  9.57500000E-01  9.00000000E-04  2.07000000E+00


 CONSTANTS FOR STRANGE BARYONS CSTRBA(1) TO CSTRBA(11)
 0.00000000E+00  0.00000000E+00  0.00000000E+00  0.00000000E+00  6.40900000E-01
 5.16300000E-01  0.00000000E+00  0.00000000E+00  0.00000000E+00  6.78000000E-01
 9.14000000E-01


 ========== ATMOSPHERE =========================================================

  ( EXTERNAL ATMOSPHERE FROM TABLE 61 AS FITTED )

  HEIGHT H IN KM GIVES THICKNESS OF ATMOSPHERE T IN G/CM**2
 H =   1.0...  6.0 KM ---> T = -1.67844E+02 + 1.2040E+03 * EXP( -H / 9.9419E+00)
 H =   6.0... 10.7 KM ---> T = -9.17951E+01 + 1.1533E+03 * EXP( -H / 8.7815E+00)
 H =  10.7... 24.0 KM ---> T = -2.09646E+00 + 1.3513E+03 * EXP( -H / 6.3614E+00)
 H =  24.0...113.0 KM ---> T =  2.70096E-05 + 9.8810E+02 * EXP( -H / 6.7997E+00)
 H = 113.0...120.0 KM ---> T =  1.49024E-03 - H / 8.0524E+04


 ========== SHOWER PARAMETERS ==================================================
 PRIMARY PARTICLE IDENTIFICATION IS            1
 PRIMARY ENERGY IS TAKEN FROM SPECTRUM VIA MONTE CARLO
      SLOPE OF PRIMARY SPECTRUM                =  0.0000E+00
      LOWER LIMIT CUT-OFF FOR PRIMARY SPECTRUM =  3.0000E+04 GEV
      UPPER LIMIT CUT-OFF FOR PRIMARY SPECTRUM =  1.0000E+05 GEV

 THETA OF INCIDENCE CHOSEN FROM       0.00...     30.00 DEGREES
 ANGULAR THETA DEPENDENCE ACCORDING TO VOLUME DETECTOR
 PHI   OF INCIDENCE CHOSEN FROM       0.00...    360.00 DEGREES
 HEIGHT OF FIRST INTERACTION IS CHOSEN RANDOMLY
 TARGET OF FIRST INTERACTION IS AT RANDOM
 STARTING ALTITUDE AT     12000000.00 CM (=      0.00 G/CM**2)
                  WHICH IS AT TOP OF ATMOSPHERE

 OBSERVATION LEVEL # IN  CM    AND IN   G/CM**2 
          1       1.23900000E+05       8.95093000E+02
  
 PARTICLES WITH LORENTZ FACTOR LARGER THAN     1.0000E+06 ARE PRINTED OUT
 SHOWER PARTICLES ENERGY CUT :
      FOR HADRONS   :      3.0000E-01 GEV

Telescope output file: './example.telescope'

Number of simulated telescopes: 3
    Telescope 1 at x= 53.59 m, y= 73.52 m, z=  1.00 m with r=0.25 m
    Telescope 2 at x= 53.59 m, y=-80.48 m, z=  1.00 m with r=0.25 m
    Telescope 3 at x=-107.18 m, y=  6.95 m, z=  1.00 m with r=0.25 m

Number of telescope arrays simulated: 1
Array centers are at random offsets within 100.00 m by 100.00 m from core.
 Impact position correction for bending of primary particle track in geomagnetic field is on.
Up to 100000 bunches are kept in memory before writing to temporary files.
When more than 5000000 bunches are collected per telescope, thinning sets in.
All photon data is enclosed in one block per array.


Using IACT/ATMO package version 1.63 (2020-12-04) for CORSIKA 7.741

      FOR MUONS     :      5.0000E-02 GEV
      FOR ELECTRONS :      2.0000E-02 GEV
      FOR GAMMAS    :      2.0000E-02 GEV


 EARTH MAGNETIC FIELD STRENGTH IS    48.0230598      MICROTESLA
      WITH INCLINATION ANGLE         58.3487282      DEGREES

 DETECTOR COORDINATE SYSTEM IS ROTATED WRT. NORTH BY   12.770 DEGREES
 CHERENKOV WAVELENGTH BAND FROM    200.000000      TO    700.000000      NANOMETER
 CHERENKOV BUNCH SIZE IS SET TO    5.0000000000000000     
 CHERENKOV PHOTONS ARE WRITTEN TO PARTICLE OUTPUT FILE

 NUMBER OF SHOWERS TO GENERATE =          10



 ========== SHOWER NO          1 ===============================================

 PRESENT TIME : 12.11.2024  15:18:45 UTC
 AND RANDOM NUMBER GENERATOR AT BEGIN OF EVENT :       1
 SEQUENCE =  1  SEED =       805  CALLS =         0  BILLIONS =         0
 SEQUENCE =  2  SEED =      3234  CALLS =         0  BILLIONS =         0
 SEQUENCE =  3  SEED =       305  CALLS =         0  BILLIONS =         0
 SEQUENCE =  4  SEED =      2220  CALLS =         0  BILLIONS =         0
 PRIMARY ENERGY =    52461.694430374555       GEV
 PRIMARY ANGLES ARE: THETA =  0.3948 RAD, PHI =  0.8647 RAD

 LONGITUDINAL SHOWER DEVELOPMENT:
 SHOWER IS SAMPLED IN NSTEP=   49 SLANT STEPS OF THSTEP=  20.0 G/CM**2
    STEP     HEIGHT [CM] SLANT DEPTH [G/CM**2] SLANT DISTANCE [CM]
       I     HLONG(I)                 THCKRL(I)            RLONG(I)
       0 12000000.000000              0.000000            0.000000
       1  2689353.100313             20.000000     10086444.679267
       2  2248845.198720             40.000000     10563657.340006
       3  1999643.591216             60.000000     10833623.353663
       4  1825255.298749             80.000000     11022542.328212
       5  1690436.326792            100.000000     11168594.919080
       6  1579457.041556            120.000000     11288821.411733
       7  1484507.410896            140.000000     11391682.599284
       8  1401702.375807            160.000000     11481387.258325
       9  1327772.695926            180.000000     11561477.034504
      10  1261353.635898            200.000000     11633430.378008
      11  1201108.276772            220.000000     11698695.604857
      12  1145724.638729            240.000000     11758694.013911
